SpectraSuite Data File
++++++++++++++++++++++++++++++++++++
Date: Tue Jul 11 16:37:00 GMT-03:00 2006
User: Alunos
Dark Spectrum Present: Yes
Reference Spectrum Present: Yes
Number of Sampled Component Spectra: 1
Spectrometers: USB4A00428
Integration Time (usec): 21000 (USB4A00428)
Spectra Averaged: 10 (USB4A00428)
Boxcar Smoothing: 0 (USB4A00428)
Correct for Electrical Dark: No (USB4A00428)
Strobe/Lamp Enabled: Yes (USB4A00428)
Correct for Detector Non-linearity: No (USB4A00428)
Correct for Stray Light: No (USB4A00428)
Number of Pixels in Processed Spectrum: 3648
>>>>>Begin Processed Spectral Data<<<<<
178.65	0.000
178.86	0.000
179.08	0.000
179.30	450.000
179.51	2250.000
179.73	-57.895
179.94	3200.000
180.16	-67.273
180.38	4.444
180.59	-366.667
180.81	205.263
181.02	175.641
181.24	10.638
181.46	34.722
181.67	77.236
181.89	33.913
182.10	50.000
182.32	445.455
182.54	86.400
182.75	352.632
182.97	-46.400
183.18	-0.488
183.40	-25.532
183.62	8.621
183.83	66.361
184.05	31.818
184.26	24.590
184.48	46.341
184.70	31.844
184.91	9.596
185.13	0.995
185.34	10.152
185.56	40.566
185.77	41.494
185.99	52.800
186.21	-44.915
186.42	22.449
186.64	-79.137
186.85	-12.552
187.07	22.327
187.29	58.125
187.50	20.109
187.72	-2.740
187.93	-39.216
188.15	-98.925
188.36	-7.345
188.58	-40.777
188.80	383.333
189.01	5.914
189.23	43.094
189.44	-23.381
189.66	0.000
189.87	1.987
190.09	73.239
190.30	-22.613
190.52	76.355
190.74	22.034
190.95	25.446
191.17	-107.874
191.38	-29.577
191.60	44.601
191.81	-29.461
192.03	23.585
192.24	-13.651
192.46	16.578
192.68	9.402
192.89	-16.568
193.11	29.412
193.32	7.083
193.54	-2.899
193.75	56.593
193.97	10.185
194.18	19.156
194.40	9.000
194.61	35.192
194.83	-2.991
195.04	-84.524
195.26	75.385
195.48	36.594
195.69	38.931
195.91	-4.082
196.12	1.984
196.34	-60.284
196.55	-43.558
196.77	-9.598
196.98	-9.790
197.20	-22.460
197.41	-1.389
197.63	-4.938
197.84	47.561
198.06	26.866
198.27	-24.913
198.49	9.967
198.70	-16.604
198.92	13.971
199.13	0.457
199.35	26.794
199.56	51.271
199.78	10.084
199.99	11.224
200.21	12.500
200.43	-13.603
200.64	-12.671
200.86	21.452
201.07	-10.067
201.29	-22.222
201.50	-36.859
201.72	27.626
201.93	22.444
202.15	10.932
202.36	-24.380
202.58	21.198
202.79	-18.685
203.01	37.358
203.22	27.111
203.44	-1.229
203.65	-23.052
203.87	23.836
204.08	23.450
204.29	-21.941
204.51	1.460
204.72	-2.128
204.94	-31.250
205.15	-10.849
205.37	-7.803
205.58	-52.416
205.80	10.169
206.01	1.377
206.23	-11.045
206.44	24.619
206.66	-47.500
206.87	-3.234
207.09	27.340
207.30	28.365
207.52	-21.450
207.73	-5.962
207.95	-6.278
208.16	-7.595
208.38	2.041
208.59	3.359
208.81	14.161
209.02	-24.709
209.23	2.316
209.45	11.454
209.66	5.818
209.88	-24.000
210.09	-23.371
210.31	5.411
210.52	-4.275
210.74	32.938
210.95	-2.564
211.17	31.634
211.38	13.778
211.60	-26.882
211.81	-4.159
212.02	-13.000
212.24	-7.598
212.45	27.778
212.67	25.231
212.88	25.354
213.10	20.945
213.31	-5.395
213.53	-18.029
213.74	-13.854
213.95	-21.698
214.17	-2.796
214.38	15.762
214.60	14.684
214.81	-19.711
215.03	21.862
215.24	15.488
215.45	13.270
215.67	-15.965
215.88	31.380
216.10	-4.286
216.31	1.617
216.53	-15.732
216.74	-2.808
216.95	10.587
217.17	18.414
217.38	-3.158
217.60	12.935
217.81	-4.227
218.03	1.790
218.24	-1.380
218.45	-1.077
218.67	2.149
218.88	10.105
219.10	-5.860
219.31	6.017
219.53	12.316
219.74	5.364
219.95	-6.635
220.17	8.204
220.38	16.915
220.60	8.144
220.81	6.336
221.02	13.103
221.24	-3.346
221.45	-0.279
221.67	6.189
221.88	-0.192
222.09	-4.563
222.31	3.803
222.52	4.751
222.74	7.022
222.95	-1.520
223.16	1.277
223.38	2.262
223.59	3.681
223.81	4.412
224.02	3.377
224.23	-2.898
224.45	0.333
224.66	5.126
224.87	8.594
225.09	2.351
225.30	5.397
225.52	3.149
225.73	4.999
225.94	1.548
226.16	2.004
226.37	2.404
226.59	2.111
226.80	2.598
227.01	1.987
227.23	2.136
227.44	3.148
227.65	2.093
227.87	3.977
228.08	2.205
228.30	2.782
228.51	2.830
228.72	2.185
228.94	1.667
229.15	1.988
229.36	1.786
229.58	2.329
229.79	0.722
230.00	2.118
230.22	1.590
230.43	1.754
230.65	2.086
230.86	1.541
231.07	0.174
231.29	3.612
231.50	2.539
231.71	0.535
231.93	2.838
232.14	0.091
232.35	0.517
232.57	3.215
232.78	2.580
232.99	2.720
233.21	3.502
233.42	2.627
233.63	1.708
233.85	3.769
234.06	1.220
234.27	1.897
234.49	1.334
234.70	3.499
234.91	-0.674
235.13	0.528
235.34	3.759
235.55	2.794
235.77	1.699
235.98	0.409
236.19	1.613
236.41	4.747
236.62	-1.302
236.83	3.438
237.05	3.358
237.26	1.977
237.47	1.487
237.69	5.259
237.90	2.679
238.11	0.958
238.33	2.339
238.54	1.966
238.75	2.128
238.97	2.449
239.18	0.846
239.39	1.076
239.61	1.289
239.82	1.275
240.03	1.543
240.24	2.785
240.46	2.850
240.67	1.617
240.88	2.220
241.10	1.986
241.31	2.648
241.52	2.313
241.74	1.550
241.95	2.135
242.16	1.102
242.37	2.017
242.59	1.318
242.80	1.429
243.01	0.827
243.23	-0.078
243.44	1.000
243.65	1.860
243.87	2.228
244.08	1.868
244.29	1.583
244.50	2.745
244.72	2.351
244.93	2.842
245.14	2.107
245.36	1.564
245.57	1.813
245.78	2.515
245.99	2.104
246.21	1.843
246.42	1.833
246.63	2.101
246.84	1.450
247.06	1.464
247.27	1.479
247.48	1.127
247.70	1.505
247.91	1.254
248.12	0.387
248.33	1.525
248.55	0.874
248.76	1.343
248.97	1.650
249.18	1.909
249.40	1.154
249.61	0.047
249.82	1.789
250.03	2.629
250.25	1.679
250.46	2.312
250.67	2.814
250.88	2.662
251.10	1.827
251.31	1.891
251.52	2.177
251.74	3.297
251.95	1.262
252.16	0.547
252.37	1.949
252.58	2.112
252.80	1.363
253.01	1.937
253.22	0.839
253.43	0.829
253.65	1.558
253.86	1.736
254.07	1.859
254.28	1.286
254.50	0.522
254.71	0.644
254.92	0.359
255.13	3.579
255.35	1.557
255.56	3.613
255.77	1.165
255.98	1.630
256.19	0.830
256.41	2.025
256.62	0.836
256.83	2.077
257.04	0.706
257.26	2.107
257.47	1.367
257.68	2.097
257.89	2.620
258.10	1.784
258.32	2.564
258.53	1.787
258.74	1.968
258.95	1.507
259.17	2.308
259.38	1.439
259.59	1.480
259.80	1.400
260.01	1.584
260.23	1.174
260.44	0.906
260.65	0.843
260.86	0.897
261.07	1.213
261.29	0.467
261.50	1.104
261.71	0.807
261.92	1.611
262.13	1.431
262.35	2.444
262.56	1.153
262.77	1.298
262.98	1.601
263.19	0.725
263.41	1.992
263.62	1.149
263.83	0.845
264.04	0.640
264.25	1.751
264.46	0.939
264.68	1.741
264.89	1.447
265.10	2.026
265.31	1.433
265.52	1.167
265.74	1.511
265.95	2.184
266.16	1.077
266.37	0.915
266.58	1.219
266.79	1.671
267.01	0.561
267.22	0.684
267.43	1.797
267.64	1.687
267.85	1.065
268.06	0.059
268.28	0.992
268.49	1.000
268.70	1.028
268.91	1.337
269.12	1.915
269.33	0.725
269.55	1.184
269.76	0.586
269.97	1.830
270.18	1.320
270.39	0.849
270.60	0.919
270.81	1.203
271.03	0.662
271.24	1.220
271.45	1.093
271.66	1.172
271.87	1.461
272.08	0.966
272.29	1.074
272.51	1.410
272.72	1.210
272.93	1.104
273.14	1.443
273.35	0.944
273.56	1.291
273.77	1.681
273.99	0.959
274.20	0.431
274.41	0.856
274.62	1.260
274.83	1.238
275.04	2.014
275.25	1.058
275.47	0.938
275.68	1.149
275.89	0.981
276.10	1.036
276.31	1.299
276.52	0.910
276.73	1.273
276.94	1.356
277.15	1.420
277.37	0.899
277.58	0.034
277.79	1.858
278.00	0.247
278.21	0.302
278.42	1.065
278.63	0.546
278.84	1.083
279.05	1.808
279.27	0.742
279.48	1.339
279.69	2.017
279.90	0.910
280.11	1.292
280.32	2.132
280.53	1.122
280.74	0.833
280.95	1.417
281.17	2.104
281.38	1.336
281.59	1.490
281.80	1.529
282.01	0.716
282.22	0.921
282.43	0.973
282.64	1.455
282.85	1.355
283.06	1.462
283.27	0.892
283.48	0.829
283.70	1.686
283.91	0.862
284.12	1.744
284.33	1.166
284.54	0.602
284.75	1.188
284.96	1.451
285.17	0.941
285.38	0.784
285.59	1.099
285.80	1.040
286.01	0.210
286.22	1.112
286.44	0.899
286.65	1.721
286.86	1.729
287.07	0.314
287.28	0.376
287.49	-0.066
287.70	1.434
287.91	0.818
288.12	1.404
288.33	0.911
288.54	1.014
288.75	1.224
288.96	0.614
289.17	0.921
289.38	0.928
289.59	0.699
289.81	1.358
290.02	1.220
290.23	1.122
290.44	0.996
290.65	1.751
290.86	1.432
291.07	0.684
291.28	1.211
291.49	1.288
291.70	0.614
291.91	1.365
292.12	1.119
292.33	1.780
292.54	1.014
292.75	1.625
292.96	1.547
293.17	0.616
293.38	0.783
293.59	1.629
293.80	2.084
294.01	1.193
294.22	1.201
294.43	1.662
294.64	1.236
294.85	1.458
295.06	1.865
295.27	0.868
295.48	1.272
295.69	1.790
295.91	0.855
296.12	1.259
296.33	1.184
296.54	1.291
296.75	1.754
296.96	1.169
297.17	1.267
297.38	1.186
297.59	0.885
297.80	1.152
298.01	1.209
298.22	1.706
298.43	1.651
298.64	1.026
298.85	0.783
299.06	1.342
299.27	1.299
299.48	1.702
299.69	0.906
299.90	1.107
300.11	1.770
300.32	0.872
300.53	0.763
300.74	1.777
300.95	1.367
301.16	0.948
301.37	1.543
301.58	1.178
301.79	0.981
302.00	1.821
302.21	1.530
302.42	0.871
302.63	1.088
302.84	1.612
303.04	1.566
303.25	0.829
303.46	1.947
303.67	1.551
303.88	1.252
304.09	2.191
304.30	1.025
304.51	1.440
304.72	1.457
304.93	1.255
305.14	1.411
305.35	1.499
305.56	1.405
305.77	1.155
305.98	0.553
306.19	1.610
306.40	1.904
306.61	1.422
306.82	1.455
307.03	1.775
307.24	1.680
307.45	1.215
307.66	2.091
307.87	1.815
308.08	1.975
308.29	1.584
308.50	1.904
308.71	1.366
308.91	1.373
309.12	1.800
309.33	1.212
309.54	1.427
309.75	1.362
309.96	1.228
310.17	0.824
310.38	0.942
310.59	1.263
310.80	1.515
311.01	1.162
311.22	1.837
311.43	1.057
311.64	1.498
311.85	1.528
312.06	1.196
312.27	1.249
312.47	1.868
312.68	1.402
312.89	0.966
313.10	1.529
313.31	1.442
313.52	1.154
313.73	1.063
313.94	1.443
314.15	1.379
314.36	1.002
314.57	1.763
314.78	1.377
314.99	1.441
315.19	1.933
315.40	1.363
315.61	1.041
315.82	1.660
316.03	1.613
316.24	1.729
316.45	1.460
316.66	1.850
316.87	1.818
317.08	2.333
317.29	1.873
317.49	1.436
317.70	1.103
317.91	0.754
318.12	1.502
318.33	1.582
318.54	2.191
318.75	1.518
318.96	2.063
319.17	1.014
319.38	1.446
319.58	1.824
319.79	1.005
320.00	1.208
320.21	1.655
320.42	1.095
320.63	1.521
320.84	2.108
321.05	1.047
321.26	1.766
321.46	1.488
321.67	1.552
321.88	1.741
322.09	0.582
322.30	0.377
322.51	1.498
322.72	2.043
322.93	1.044
323.13	1.319
323.34	0.868
323.55	1.075
323.76	1.885
323.97	0.923
324.18	0.914
324.39	0.468
324.60	1.286
324.80	1.235
325.01	0.469
325.22	0.915
325.43	1.153
325.64	0.625
325.85	1.177
326.06	1.166
326.26	1.359
326.47	1.306
326.68	0.957
326.89	1.335
327.10	0.971
327.31	1.237
327.52	1.214
327.72	1.241
327.93	1.291
328.14	0.923
328.35	1.616
328.56	1.352
328.77	1.827
328.97	1.056
329.18	0.760
329.39	1.203
329.60	0.989
329.81	1.515
330.02	1.254
330.22	0.650
330.43	0.872
330.64	0.992
330.85	0.816
331.06	1.079
331.27	1.454
331.47	1.000
331.68	0.966
331.89	1.315
332.10	0.828
332.31	1.266
332.52	1.112
332.72	1.039
332.93	0.760
333.14	0.568
333.35	0.815
333.56	1.212
333.76	1.012
333.97	0.765
334.18	1.497
334.39	0.933
334.60	1.455
334.81	2.208
335.01	1.129
335.22	1.078
335.43	1.502
335.64	0.620
335.85	1.152
336.05	1.815
336.26	1.371
336.47	1.308
336.68	0.999
336.89	1.231
337.09	1.074
337.30	1.153
337.51	0.917
337.72	1.759
337.93	0.798
338.13	1.297
338.34	0.659
338.55	0.380
338.76	1.241
338.96	0.696
339.17	0.810
339.38	0.087
339.59	0.528
339.80	0.457
340.00	0.530
340.21	0.481
340.42	0.548
340.63	1.013
340.84	0.631
341.04	0.566
341.25	0.760
341.46	0.793
341.67	0.794
341.87	0.980
342.08	1.021
342.29	1.514
342.50	0.480
342.70	1.488
342.91	0.562
343.12	0.913
343.33	0.352
343.54	0.929
343.74	0.683
343.95	0.598
344.16	0.934
344.37	0.123
344.57	0.112
344.78	0.160
344.99	0.648
345.20	0.434
345.40	0.596
345.61	0.698
345.82	0.631
346.03	0.837
346.23	0.874
346.44	1.025
346.65	0.291
346.86	0.851
347.06	1.151
347.27	-0.171
347.48	0.367
347.69	0.374
347.89	-0.152
348.10	0.668
348.31	0.208
348.51	0.706
348.72	0.529
348.93	0.843
349.14	0.486
349.34	1.090
349.55	0.264
349.76	0.958
349.97	0.238
350.17	0.449
350.38	0.610
350.59	0.514
350.79	0.252
351.00	0.829
351.21	0.715
351.42	0.355
351.62	0.248
351.83	0.732
352.04	0.491
352.25	0.897
352.45	0.439
352.66	0.540
352.87	0.656
353.07	0.398
353.28	0.645
353.49	0.714
353.69	0.320
353.90	-0.094
354.11	0.411
354.32	0.236
354.52	0.232
354.73	-0.055
354.94	1.224
355.14	0.606
355.35	0.100
355.56	0.640
355.76	0.455
355.97	0.395
356.18	0.477
356.39	0.478
356.59	0.387
356.80	0.052
357.01	0.362
357.21	0.334
357.42	0.116
357.63	-0.154
357.83	-0.135
358.04	-0.054
358.25	0.450
358.45	0.350
358.66	0.233
358.87	0.244
359.07	0.635
359.28	0.311
359.49	0.152
359.69	-0.000
359.90	0.364
360.11	0.416
360.31	0.016
360.52	0.068
360.73	0.334
360.93	0.197
361.14	-0.239
361.35	-0.037
361.55	-0.348
361.76	0.029
361.97	-0.239
362.17	0.147
362.38	-0.105
362.59	0.172
362.79	0.217
363.00	0.478
363.21	0.000
363.41	0.052
363.62	0.028
363.83	0.777
364.03	-0.516
364.24	-0.236
364.45	0.003
364.65	-0.187
364.86	0.530
365.07	-0.130
365.27	0.026
365.48	0.596
365.68	-0.070
365.89	0.387
366.10	-0.366
366.30	0.265
366.51	0.030
366.72	-0.122
366.92	0.424
367.13	0.177
367.34	-0.163
367.54	0.488
367.75	0.404
367.95	-0.030
368.16	0.457
368.37	-0.221
368.57	0.412
368.78	0.114
368.99	0.031
369.19	0.621
369.40	0.607
369.60	0.515
369.81	0.612
370.02	0.275
370.22	0.526
370.43	0.201
370.64	-0.077
370.84	0.093
371.05	0.442
371.25	-0.284
371.46	0.030
371.67	0.116
371.87	0.390
372.08	-0.168
372.28	0.132
372.49	0.350
372.70	0.347
372.90	-0.163
373.11	0.241
373.31	0.375
373.52	0.220
373.73	0.328
373.93	0.291
374.14	0.195
374.34	0.180
374.55	0.235
374.76	0.433
374.96	-0.235
375.17	0.055
375.37	0.338
375.58	0.016
375.78	-0.079
375.99	0.475
376.20	0.200
376.40	0.105
376.61	0.153
376.81	0.821
377.02	0.002
377.23	-0.428
377.43	0.079
377.64	0.048
377.84	0.065
378.05	0.017
378.25	-0.121
378.46	0.236
378.66	-0.035
378.87	0.304
379.08	-0.098
379.28	0.357
379.49	0.099
379.69	0.232
379.90	0.168
380.10	0.040
380.31	0.226
380.52	-0.048
380.72	0.241
380.93	-0.101
381.13	0.255
381.34	-0.056
381.54	0.301
381.75	0.322
381.95	0.329
382.16	0.162
382.37	0.043
382.57	0.148
382.78	0.119
382.98	0.218
383.19	0.243
383.39	0.106
383.60	0.115
383.80	-0.040
384.01	-0.157
384.21	0.357
384.42	0.113
384.62	-0.101
384.83	0.159
385.04	0.455
385.24	-0.120
385.45	0.204
385.65	0.136
385.86	0.097
386.06	-0.072
386.27	0.068
386.47	0.160
386.68	0.407
386.88	-0.107
387.09	0.312
387.29	0.092
387.50	-0.092
387.70	0.185
387.91	0.463
388.11	0.465
388.32	0.455
388.52	-0.212
388.73	0.117
388.93	0.161
389.14	0.305
389.34	0.154
389.55	0.448
389.75	0.240
389.96	0.434
390.16	-0.057
390.37	0.308
390.57	0.419
390.78	0.176
390.98	0.462
391.19	0.187
391.39	0.510
391.60	0.046
391.80	0.040
392.01	-0.175
392.21	0.385
392.42	0.224
392.62	0.259
392.83	0.066
393.03	-0.006
393.24	0.400
393.44	0.305
393.65	0.425
393.85	0.242
394.06	0.119
394.26	0.157
394.47	-0.065
394.67	0.162
394.88	0.102
395.08	0.453
395.29	0.010
395.49	0.229
395.70	0.367
395.90	0.348
396.10	0.173
396.31	0.356
396.51	0.281
396.72	0.385
396.92	-0.082
397.13	0.347
397.33	-0.048
397.54	0.392
397.74	0.338
397.95	0.509
398.15	0.264
398.36	0.205
398.56	0.436
398.76	0.301
398.97	0.357
399.17	0.091
399.38	0.029
399.58	0.284
399.79	0.083
399.99	0.223
400.20	0.259
400.40	0.034
400.61	0.447
400.81	0.336
401.01	0.730
401.22	0.379
401.42	0.233
401.63	0.273
401.83	0.292
402.04	0.449
402.24	-0.039
402.44	0.307
402.65	0.463
402.85	0.239
403.06	-0.008
403.26	-0.236
403.47	-0.246
403.67	0.171
403.87	-0.014
404.08	-0.011
404.28	0.049
404.49	-0.055
404.69	0.228
404.90	0.347
405.10	0.344
405.30	0.233
405.51	0.098
405.71	-0.151
405.92	0.044
406.12	0.172
406.32	0.565
406.53	0.090
406.73	0.038
406.94	0.025
407.14	0.292
407.34	0.046
407.55	-0.277
407.75	0.028
407.96	0.221
408.16	0.387
408.37	-0.096
408.57	0.516
408.77	0.386
408.98	-0.049
409.18	-0.096
409.38	0.011
409.59	-0.097
409.79	0.292
410.00	0.344
410.20	0.017
410.40	0.143
410.61	0.205
410.81	0.241
411.02	0.293
411.22	-0.158
411.42	0.172
411.63	-0.104
411.83	0.163
412.03	0.471
412.24	-0.117
412.44	0.300
412.65	0.423
412.85	0.162
413.05	-0.157
413.26	0.285
413.46	-0.058
413.66	0.133
413.87	0.063
414.07	-0.145
414.28	0.054
414.48	0.036
414.68	0.137
414.89	0.319
415.09	0.163
415.29	0.074
415.50	0.139
415.70	0.013
415.90	-0.149
416.11	0.113
416.31	0.007
416.52	-0.104
416.72	0.124
416.92	0.213
417.13	-0.157
417.33	0.005
417.53	0.108
417.74	-0.026
417.94	0.027
418.14	0.118
418.35	0.067
418.55	0.112
418.75	0.021
418.96	0.195
419.16	0.068
419.36	0.093
419.57	-0.113
419.77	-0.036
419.97	0.238
420.18	-0.012
420.38	0.098
420.58	0.066
420.79	0.098
420.99	-0.021
421.19	0.118
421.40	0.027
421.60	0.214
421.80	0.061
422.01	0.060
422.21	0.182
422.41	0.191
422.62	-0.017
422.82	0.179
423.02	0.190
423.22	0.073
423.43	0.181
423.63	0.217
423.83	0.025
424.04	0.168
424.24	0.206
424.44	0.173
424.65	0.143
424.85	0.218
425.05	0.304
425.26	0.191
425.46	0.125
425.66	0.266
425.86	0.378
426.07	0.259
426.27	0.287
426.47	0.143
426.68	0.445
426.88	0.328
427.08	0.292
427.28	0.175
427.49	0.199
427.69	0.413
427.89	0.143
428.10	0.411
428.30	0.355
428.50	0.209
428.70	0.337
428.91	0.182
429.11	0.387
429.31	0.557
429.52	0.450
429.72	0.377
429.92	0.279
430.12	0.637
430.33	0.364
430.53	0.594
430.73	0.451
430.93	0.364
431.14	0.324
431.34	0.088
431.54	0.453
431.75	0.394
431.95	0.275
432.15	0.324
432.35	0.331
432.56	0.320
432.76	0.177
432.96	0.498
433.16	0.300
433.37	0.471
433.57	0.300
433.77	0.584
433.97	0.406
434.18	0.483
434.38	0.372
434.58	0.300
434.78	0.475
434.99	0.358
435.19	0.560
435.39	0.457
435.59	0.435
435.80	0.508
436.00	0.381
436.20	0.443
436.40	0.569
436.61	0.699
436.81	0.687
437.01	0.513
437.21	0.382
437.41	0.418
437.62	0.660
437.82	0.452
438.02	0.337
438.22	0.274
438.43	0.491
438.63	0.612
438.83	0.671
439.03	0.589
439.23	0.571
439.44	0.649
439.64	0.468
439.84	0.612
440.04	0.668
440.25	0.722
440.45	0.644
440.65	0.724
440.85	0.629
441.05	0.609
441.26	0.806
441.46	0.558
441.66	0.867
441.86	0.670
442.06	0.765
442.27	0.696
442.47	0.689
442.67	0.645
442.87	0.852
443.07	0.709
443.28	0.753
443.48	1.003
443.68	0.636
443.88	0.734
444.08	0.820
444.29	0.618
444.49	0.776
444.69	0.724
444.89	0.872
445.09	0.876
445.30	0.713
445.50	0.922
445.70	0.992
445.90	0.806
446.10	0.851
446.30	0.803
446.51	0.914
446.71	0.904
446.91	0.921
447.11	1.111
447.31	1.074
447.51	1.026
447.72	1.111
447.92	1.090
448.12	1.038
448.32	0.859
448.52	1.298
448.72	0.986
448.93	1.173
449.13	1.315
449.33	1.102
449.53	1.236
449.73	1.007
449.93	1.152
450.14	1.326
450.34	1.335
450.54	0.979
450.74	1.176
450.94	1.412
451.14	1.347
451.35	1.226
451.55	1.295
451.75	1.305
451.95	1.257
452.15	1.309
452.35	1.391
452.55	1.536
452.76	1.361
452.96	1.311
453.16	1.502
453.36	1.595
453.56	1.292
453.76	1.548
453.96	1.556
454.16	1.587
454.37	1.348
454.57	1.499
454.77	1.560
454.97	1.636
455.17	1.591
455.37	1.663
455.57	1.617
455.77	1.613
455.98	1.808
456.18	1.601
456.38	1.785
456.58	1.492
456.78	1.879
456.98	1.690
457.18	1.953
457.38	1.786
457.59	1.732
457.79	1.878
457.99	1.719
458.19	1.753
458.39	1.818
458.59	1.694
458.79	1.743
458.99	1.890
459.19	1.985
459.39	1.852
459.60	2.006
459.80	1.896
460.00	1.907
460.20	1.938
460.40	1.898
460.60	2.016
460.80	2.148
461.00	2.128
461.20	2.258
461.40	2.125
461.61	2.150
461.81	2.291
462.01	2.279
462.21	2.252
462.41	2.469
462.61	2.308
462.81	2.376
463.01	2.393
463.21	2.352
463.41	2.360
463.61	2.320
463.81	2.522
464.01	2.436
464.22	2.483
464.42	2.251
464.62	2.493
464.82	2.543
465.02	2.485
465.22	2.600
465.42	2.608
465.62	2.684
465.82	2.619
466.02	2.661
466.22	2.605
466.42	2.818
466.62	2.726
466.82	3.002
467.02	2.940
467.22	2.771
467.43	2.851
467.63	2.789
467.83	2.941
468.03	3.020
468.23	2.961
468.43	3.005
468.63	3.140
468.83	2.933
469.03	2.983
469.23	3.000
469.43	3.033
469.63	3.031
469.83	3.332
470.03	3.179
470.23	2.998
470.43	3.345
470.63	3.371
470.83	3.417
471.03	3.369
471.23	3.744
471.43	3.397
471.63	3.281
471.83	3.566
472.03	3.691
472.23	3.516
472.43	3.721
472.64	3.407
472.84	3.417
473.04	3.662
473.24	3.967
473.44	3.922
473.64	3.707
473.84	3.966
474.04	3.823
474.24	4.148
474.44	3.977
474.64	3.857
474.84	4.100
475.04	3.994
475.24	4.214
475.44	4.303
475.64	3.976
475.84	4.037
476.04	4.264
476.24	4.526
476.44	4.327
476.64	4.446
476.84	4.297
477.04	4.400
477.24	4.463
477.44	4.438
477.64	4.681
477.84	4.830
478.04	4.575
478.24	4.640
478.44	4.904
478.64	4.911
478.84	4.733
479.04	4.734
479.24	5.061
479.44	5.112
479.64	5.194
479.83	5.011
480.03	5.343
480.23	5.231
480.43	5.240
480.63	5.284
480.83	5.322
481.03	5.378
481.23	5.390
481.43	5.517
481.63	5.351
481.83	5.585
482.03	5.529
482.23	5.646
482.43	5.552
482.63	5.698
482.83	5.764
483.03	5.714
483.23	5.868
483.43	6.036
483.63	6.150
483.83	6.260
484.03	6.281
484.23	6.290
484.43	6.315
484.63	6.337
484.83	6.537
485.03	6.519
485.22	6.712
485.42	6.604
485.62	6.740
485.82	6.809
486.02	6.776
486.22	6.748
486.42	6.777
486.62	6.913
486.82	6.941
487.02	7.011
487.22	6.986
487.42	7.126
487.62	7.296
487.82	7.326
488.02	7.422
488.22	7.497
488.41	7.592
488.61	7.689
488.81	7.970
489.01	7.899
489.21	8.012
489.41	7.981
489.61	7.818
489.81	8.212
490.01	8.052
490.21	8.266
490.41	8.235
490.61	8.201
490.80	8.178
491.00	8.286
491.20	8.325
491.40	8.428
491.60	8.616
491.80	8.661
492.00	8.664
492.20	8.993
492.40	9.120
492.60	9.049
492.80	9.294
492.99	9.336
493.19	9.475
493.39	9.690
493.59	9.685
493.79	9.808
493.99	9.865
494.19	9.839
494.39	9.945
494.59	9.841
494.78	10.226
494.98	10.130
495.18	9.957
495.38	10.131
495.58	10.254
495.78	9.967
495.98	10.225
496.18	10.378
496.38	10.265
496.57	10.571
496.77	10.661
496.97	10.650
497.17	10.578
497.37	10.944
497.57	11.020
497.77	11.190
497.96	11.018
498.16	11.020
498.36	11.370
498.56	11.563
498.76	11.669
498.96	11.650
499.16	11.605
499.36	11.606
499.55	11.639
499.75	11.770
499.95	12.029
500.15	12.055
500.35	12.056
500.55	12.281
500.75	12.300
500.94	12.470
501.14	12.363
501.34	12.531
501.54	12.595
501.74	12.566
501.94	12.657
502.13	12.645
502.33	12.779
502.53	13.089
502.73	12.755
502.93	12.813
503.13	13.094
503.32	13.282
503.52	13.182
503.72	13.253
503.92	13.350
504.12	13.312
504.32	13.193
504.51	13.516
504.71	13.591
504.91	13.548
505.11	13.572
505.31	13.542
505.51	13.925
505.70	13.923
505.90	13.881
506.10	14.096
506.30	14.082
506.50	14.018
506.70	14.032
506.89	14.297
507.09	14.133
507.29	14.323
507.49	14.546
507.69	14.389
507.88	14.052
508.08	14.491
508.28	14.472
508.48	14.560
508.68	14.670
508.87	14.959
509.07	14.722
509.27	14.833
509.47	14.727
509.67	14.943
509.86	15.049
510.06	14.888
510.26	15.126
510.46	15.336
510.66	15.384
510.85	15.277
511.05	15.604
511.25	15.533
511.45	15.459
511.64	15.659
511.84	15.741
512.04	15.718
512.24	15.593
512.44	15.716
512.63	15.942
512.83	16.337
513.03	15.730
513.23	16.199
513.42	16.261
513.62	16.115
513.82	16.142
514.02	16.295
514.22	16.555
514.41	16.306
514.61	16.604
514.81	16.565
515.01	16.477
515.20	16.753
515.40	16.770
515.60	16.811
515.80	16.682
515.99	16.860
516.19	16.874
516.39	16.946
516.59	16.824
516.78	16.617
516.98	16.845
517.18	16.710
517.38	16.621
517.57	16.882
517.77	16.951
517.97	17.027
518.17	17.007
518.36	16.913
518.56	17.098
518.76	17.256
518.96	17.530
519.15	17.435
519.35	17.540
519.55	17.606
519.75	17.752
519.94	17.809
520.14	17.871
520.34	17.792
520.54	17.924
520.73	17.995
520.93	17.903
521.13	18.364
521.32	18.141
521.52	18.211
521.72	18.258
521.92	18.225
522.11	18.246
522.31	18.251
522.51	18.304
522.70	18.336
522.90	18.368
523.10	18.566
523.30	18.263
523.49	18.252
523.69	18.305
523.89	18.448
524.08	18.448
524.28	18.572
524.48	18.463
524.68	18.536
524.87	18.442
525.07	18.474
525.27	18.683
525.46	18.536
525.66	18.590
525.86	18.976
526.05	19.014
526.25	18.898
526.45	18.864
526.65	19.043
526.84	18.969
527.04	18.962
527.24	18.851
527.43	19.050
527.63	19.101
527.83	19.179
528.02	19.214
528.22	19.408
528.42	19.477
528.61	19.544
528.81	19.574
529.01	19.608
529.20	19.879
529.40	19.829
529.60	19.959
529.79	20.039
529.99	19.941
530.19	19.715
530.38	20.087
530.58	20.155
530.78	20.073
530.97	20.200
531.17	20.021
531.37	19.955
531.56	19.869
531.76	19.984
531.96	19.909
532.15	19.939
532.35	19.963
532.55	20.233
532.74	19.968
532.94	20.126
533.14	20.032
533.33	20.229
533.53	20.347
533.73	20.555
533.92	20.578
534.12	20.625
534.32	20.698
534.51	20.960
534.71	20.917
534.90	20.745
535.10	20.746
535.30	20.748
535.49	20.650
535.69	20.652
535.89	20.792
536.08	20.744
536.28	20.610
536.48	20.709
536.67	20.763
536.87	20.983
537.06	21.062
537.26	21.295
537.46	21.355
537.65	21.588
537.85	21.583
538.05	21.608
538.24	21.749
538.44	21.207
538.63	21.590
538.83	21.349
539.03	21.573
539.22	21.374
539.42	21.453
539.61	21.317
539.81	21.194
540.01	21.181
540.20	21.292
540.40	21.370
540.59	21.346
540.79	21.370
540.99	21.522
541.18	21.536
541.38	21.769
541.57	21.479
541.77	21.714
541.97	21.912
542.16	21.846
542.36	21.919
542.55	22.317
542.75	22.058
542.95	22.331
543.14	22.219
543.34	22.264
543.53	22.219
543.73	22.385
543.93	22.350
544.12	22.381
544.32	22.371
544.51	22.449
544.71	22.343
544.90	22.340
545.10	22.230
545.30	22.473
545.49	22.250
545.69	22.072
545.88	22.641
546.08	22.482
546.27	22.585
546.47	22.716
546.67	22.543
546.86	22.622
547.06	22.511
547.25	23.056
547.45	23.023
547.64	23.064
547.84	23.044
548.03	23.206
548.23	23.179
548.43	23.386
548.62	23.348
548.82	23.470
549.01	23.283
549.21	23.264
549.40	23.398
549.60	23.519
549.79	23.457
549.99	23.568
550.19	23.441
550.38	23.575
550.58	23.495
550.77	23.175
550.97	23.274
551.16	23.609
551.36	23.648
551.55	23.345
551.75	23.585
551.94	23.707
552.14	23.747
552.33	23.588
552.53	23.545
552.72	23.704
552.92	23.574
553.12	23.836
553.31	23.707
553.51	24.277
553.70	24.189
553.90	24.250
554.09	24.279
554.29	24.178
554.48	24.397
554.68	24.295
554.87	24.060
555.07	24.183
555.26	24.105
555.46	24.314
555.65	24.514
555.85	24.322
556.04	24.620
556.24	24.294
556.43	24.815
556.63	24.438
556.82	24.659
557.02	24.642
557.21	24.572
557.41	24.658
557.60	24.641
557.80	24.722
557.99	24.679
558.19	24.577
558.38	24.626
558.58	25.044
558.77	25.361
558.97	24.768
559.16	25.099
559.36	24.828
559.55	24.671
559.75	24.483
559.94	24.921
560.14	24.950
560.33	25.272
560.53	25.445
560.72	25.054
560.91	25.031
561.11	24.979
561.30	25.237
561.50	25.317
561.69	25.275
561.89	25.359
562.08	25.246
562.28	25.297
562.47	25.279
562.67	25.381
562.86	25.316
563.06	25.880
563.25	25.546
563.45	25.936
563.64	25.126
563.83	25.526
564.03	25.378
564.22	25.572
564.42	25.391
564.61	25.496
564.81	25.360
565.00	25.145
565.20	25.472
565.39	25.417
565.58	25.613
565.78	25.467
565.97	25.624
566.17	25.882
566.36	25.673
566.56	25.630
566.75	25.855
566.95	26.176
567.14	26.275
567.33	26.196
567.53	25.994
567.72	25.794
567.92	26.135
568.11	26.101
568.31	26.219
568.50	26.051
568.69	26.272
568.89	26.132
569.08	26.088
569.28	26.445
569.47	26.664
569.67	26.488
569.86	26.239
570.05	26.114
570.25	26.423
570.44	26.199
570.64	26.215
570.83	26.426
571.02	26.012
571.22	26.316
571.41	26.583
571.61	26.381
571.80	26.428
571.99	26.446
572.19	26.350
572.38	26.663
572.58	26.763
572.77	27.123
572.96	27.138
573.16	27.128
573.35	26.976
573.55	26.888
573.74	26.935
573.93	26.741
574.13	26.922
574.32	26.649
574.52	26.602
574.71	26.889
574.90	26.884
575.10	26.861
575.29	27.003
575.49	27.117
575.68	27.142
575.87	26.766
576.07	27.345
576.26	27.217
576.45	27.479
576.65	27.068
576.84	27.558
577.04	27.552
577.23	27.578
577.42	27.754
577.62	27.510
577.81	27.816
578.00	27.490
578.20	27.997
578.39	28.167
578.58	27.792
578.78	27.940
578.97	28.099
579.16	28.051
579.36	27.496
579.55	27.873
579.75	27.600
579.94	28.313
580.13	28.262
580.33	28.193
580.52	28.037
580.71	28.292
580.91	28.197
581.10	27.588
581.29	28.098
581.49	27.866
581.68	28.398
581.87	28.128
582.07	28.357
582.26	28.459
582.45	28.200
582.65	28.235
582.84	28.168
583.03	28.447
583.23	28.475
583.42	28.743
583.61	28.543
583.81	28.690
584.00	28.655
584.19	28.653
584.39	28.378
584.58	28.770
584.77	28.527
584.97	28.503
585.16	28.438
585.35	28.600
585.55	28.598
585.74	28.799
585.93	28.933
586.13	29.158
586.32	28.498
586.51	28.936
586.70	29.032
586.90	28.768
587.09	28.936
587.28	28.821
587.48	28.389
587.67	28.690
587.86	28.753
588.06	29.144
588.25	28.958
588.44	28.796
588.63	28.650
588.83	29.213
589.02	29.345
589.21	29.035
589.41	29.104
589.60	29.154
589.79	29.129
589.98	29.302
590.18	28.750
590.37	29.002
590.56	29.372
590.76	29.332
590.95	29.107
591.14	29.226
591.33	29.732
591.53	29.229
591.72	29.439
591.91	29.775
592.11	29.364
592.30	29.421
592.49	29.659
592.68	28.992
592.88	29.214
593.07	29.088
593.26	29.276
593.45	29.245
593.65	29.042
593.84	29.556
594.03	29.198
594.22	29.680
594.42	29.420
594.61	29.499
594.80	29.111
594.99	29.570
595.19	29.613
595.38	29.269
595.57	29.775
595.76	29.526
595.96	29.412
596.15	29.551
596.34	29.159
596.53	29.567
596.73	29.658
596.92	29.505
597.11	29.588
597.30	29.864
597.50	29.786
597.69	30.222
597.88	30.054
598.07	30.090
598.27	30.363
598.46	30.062
598.65	30.403
598.84	30.424
599.04	30.502
599.23	30.465
599.42	30.731
599.61	30.414
599.80	30.827
600.00	30.761
600.19	30.107
600.38	30.506
600.57	30.245
600.76	30.216
600.96	30.270
601.15	30.169
601.34	30.689
601.53	30.175
601.73	30.086
601.92	29.834
602.11	30.392
602.30	29.992
602.49	30.284
602.69	30.324
602.88	30.156
603.07	30.270
603.26	30.048
603.45	30.086
603.65	30.064
603.84	29.949
604.03	30.001
604.22	29.845
604.41	30.578
604.61	30.213
604.80	30.796
604.99	30.576
605.18	30.579
605.37	31.150
605.56	30.775
605.76	30.870
605.95	31.156
606.14	30.645
606.33	30.653
606.52	30.712
606.72	31.125
606.91	31.062
607.10	30.694
607.29	30.907
607.48	30.208
607.67	30.595
607.87	30.733
608.06	30.283
608.25	30.680
608.44	30.758
608.63	30.219
608.82	30.874
609.02	30.664
609.21	30.976
609.40	31.088
609.59	31.001
609.78	31.228
609.97	31.259
610.16	31.130
610.36	31.543
610.55	31.160
610.74	31.409
610.93	31.350
611.12	31.491
611.31	31.539
611.51	31.620
611.70	31.490
611.89	31.928
612.08	31.372
612.27	31.656
612.46	31.949
612.65	32.106
612.85	31.965
613.04	32.183
613.23	32.013
613.42	31.530
613.61	31.667
613.80	31.840
613.99	31.947
614.18	31.860
614.38	32.025
614.57	31.597
614.76	31.915
614.95	31.440
615.14	31.862
615.33	31.968
615.52	32.180
615.71	31.816
615.90	32.245
616.10	31.995
616.29	32.148
616.48	31.827
616.67	32.174
616.86	32.418
617.05	31.857
617.24	32.485
617.43	31.930
617.62	32.227
617.82	32.202
618.01	32.325
618.20	32.412
618.39	32.187
618.58	32.438
618.77	32.050
618.96	32.072
619.15	32.583
619.34	32.098
619.53	32.919
619.73	32.249
619.92	32.252
620.11	32.046
620.30	32.711
620.49	32.679
620.68	32.298
620.87	32.013
621.06	32.375
621.25	32.913
621.44	32.528
621.63	31.930
621.82	32.949
622.02	32.553
622.21	32.642
622.40	32.747
622.59	33.092
622.78	32.685
622.97	32.020
623.16	32.559
623.35	32.825
623.54	32.656
623.73	32.416
623.92	32.796
624.11	32.313
624.30	32.933
624.49	33.023
624.68	33.057
624.87	32.394
625.07	32.794
625.26	32.576
625.45	32.502
625.64	32.047
625.83	32.543
626.02	32.675
626.21	32.477
626.40	32.632
626.59	32.530
626.78	32.466
626.97	33.031
627.16	32.867
627.35	32.896
627.54	32.497
627.73	32.844
627.92	32.894
628.11	33.114
628.30	33.160
628.49	33.016
628.68	32.686
628.87	32.936
629.06	32.862
629.25	33.066
629.44	32.750
629.63	33.336
629.82	33.313
630.01	33.060
630.20	33.225
630.39	33.284
630.59	33.410
630.78	33.166
630.97	33.512
631.16	32.800
631.35	33.381
631.54	33.013
631.73	33.485
631.92	33.161
632.11	33.697
632.30	33.071
632.49	32.954
632.68	33.256
632.87	33.018
633.06	32.717
633.25	33.191
633.44	33.183
633.63	32.912
633.82	33.308
634.01	33.152
634.20	32.923
634.39	33.894
634.58	33.454
634.77	33.367
634.96	33.814
635.15	33.542
635.33	33.523
635.52	33.588
635.71	33.579
635.90	34.083
636.09	33.452
636.28	33.459
636.47	33.562
636.66	33.832
636.85	34.053
637.04	33.726
637.23	33.784
637.42	33.798
637.61	33.831
637.80	33.477
637.99	33.659
638.18	33.569
638.37	33.466
638.56	33.622
638.75	34.109
638.94	33.892
639.13	33.772
639.32	34.344
639.51	33.950
639.70	34.161
639.89	33.989
640.08	33.888
640.27	34.198
640.46	33.505
640.65	33.809
640.83	33.935
641.02	34.035
641.21	34.343
641.40	33.776
641.59	33.700
641.78	33.842
641.97	34.288
642.16	34.212
642.35	33.944
642.54	34.299
642.73	35.062
642.92	34.056
643.11	33.610
643.30	33.773
643.49	34.444
643.68	34.516
643.86	34.022
644.05	34.189
644.24	34.215
644.43	34.395
644.62	34.245
644.81	34.077
645.00	33.598
645.19	33.856
645.38	33.887
645.57	34.281
645.76	34.538
645.95	34.669
646.13	33.621
646.32	33.982
646.51	34.225
646.70	34.601
646.89	34.694
647.08	35.071
647.27	34.238
647.46	34.118
647.65	34.408
647.84	34.527
648.03	34.471
648.21	34.179
648.40	34.670
648.59	35.098
648.78	34.874
648.97	34.304
649.16	34.123
649.35	34.417
649.54	34.627
649.73	34.265
649.91	34.904
650.10	34.575
650.29	34.600
650.48	34.329
650.67	35.226
650.86	34.249
651.05	34.439
651.24	35.102
651.42	33.812
651.61	35.097
651.80	35.051
651.99	34.519
652.18	34.844
652.37	34.518
652.56	34.716
652.75	34.691
652.93	35.039
653.12	34.639
653.31	34.197
653.50	34.451
653.69	34.607
653.88	34.791
654.07	35.191
654.25	35.068
654.44	35.061
654.63	35.343
654.82	35.024
655.01	35.546
655.20	34.816
655.39	35.283
655.57	35.083
655.76	34.836
655.95	35.209
656.14	34.624
656.33	34.994
656.52	34.668
656.70	34.736
656.89	35.051
657.08	34.778
657.27	34.697
657.46	34.860
657.65	34.985
657.83	34.228
658.02	34.653
658.21	34.553
658.40	34.627
658.59	34.502
658.78	34.805
658.96	34.583
659.15	34.573
659.34	34.597
659.53	35.040
659.72	34.946
659.90	35.258
660.09	34.944
660.28	35.552
660.47	35.371
660.66	34.830
660.85	35.638
661.03	34.850
661.22	35.018
661.41	35.032
661.60	35.060
661.79	34.867
661.97	35.602
662.16	35.942
662.35	35.352
662.54	35.155
662.73	34.995
662.91	35.852
663.10	35.199
663.29	35.233
663.48	35.758
663.67	34.940
663.85	35.142
664.04	35.078
664.23	34.992
664.42	35.243
664.60	35.457
664.79	35.339
664.98	34.852
665.17	34.835
665.36	35.227
665.54	35.867
665.73	35.210
665.92	35.754
666.11	34.972
666.29	36.063
666.48	35.617
666.67	35.460
666.86	36.097
667.05	35.195
667.23	35.831
667.42	35.404
667.61	34.948
667.80	34.926
667.98	35.328
668.17	35.291
668.36	35.326
668.55	35.116
668.73	35.787
668.92	35.836
669.11	35.442
669.30	35.700
669.48	35.357
669.67	35.498
669.86	35.068
670.05	34.970
670.23	35.283
670.42	35.898
670.61	35.442
670.80	35.324
670.98	35.138
671.17	36.552
671.36	35.285
671.55	35.695
671.73	36.029
671.92	35.767
672.11	34.997
672.29	35.608
672.48	35.595
672.67	35.916
672.86	35.723
673.04	35.030
673.23	35.526
673.42	35.423
673.61	35.641
673.79	35.719
673.98	35.244
674.17	35.966
674.35	35.833
674.54	35.254
674.73	35.035
674.92	35.879
675.10	35.442
675.29	34.962
675.48	36.086
675.66	36.285
675.85	35.104
676.04	35.328
676.22	35.860
676.41	35.960
676.60	35.835
676.79	35.125
676.97	35.616
677.16	35.466
677.35	35.467
677.53	35.485
677.72	35.837
677.91	35.458
678.09	35.778
678.28	34.969
678.47	35.203
678.65	34.641
678.84	35.138
679.03	35.470
679.22	34.930
679.40	35.580
679.59	35.165
679.78	34.755
679.96	35.141
680.15	35.033
680.34	35.067
680.52	35.663
680.71	35.202
680.90	35.285
681.08	35.246
681.27	35.339
681.46	35.463
681.64	35.930
681.83	36.219
682.02	35.509
682.20	35.809
682.39	35.085
682.58	35.946
682.76	35.309
682.95	35.143
683.14	35.285
683.32	35.478
683.51	35.232
683.69	35.837
683.88	35.481
684.07	35.535
684.25	35.895
684.44	35.911
684.63	35.298
684.81	35.919
685.00	35.894
685.19	35.209
685.37	35.303
685.56	36.030
685.75	35.292
685.93	35.954
686.12	35.921
686.30	35.697
686.49	35.220
686.68	35.550
686.86	35.174
687.05	35.434
687.24	35.699
687.42	36.268
687.61	36.112
687.79	35.845
687.98	36.465
688.17	34.897
688.35	35.653
688.54	35.208
688.73	35.400
688.91	35.984
689.10	36.488
689.28	36.250
689.47	35.415
689.66	35.930
689.84	35.398
690.03	35.332
690.21	35.994
690.40	35.769
690.59	34.866
690.77	34.669
690.96	35.451
691.14	35.812
691.33	34.327
691.52	35.276
691.70	35.247
691.89	35.383
692.07	35.036
692.26	35.377
692.45	35.076
692.63	35.212
692.82	35.594
693.00	34.719
693.19	34.602
693.37	35.587
693.56	36.088
693.75	36.272
693.93	35.767
694.12	36.138
694.30	35.595
694.49	35.676
694.68	36.272
694.86	35.587
695.05	35.040
695.23	34.685
695.42	35.783
695.60	35.068
695.79	35.566
695.98	34.690
696.16	34.484
696.35	35.171
696.53	34.925
696.72	35.066
696.90	34.380
697.09	34.271
697.27	35.047
697.46	34.767
697.65	34.839
697.83	35.088
698.02	34.477
698.20	34.397
698.39	34.257
698.57	34.852
698.76	34.603
698.94	34.994
699.13	34.488
699.31	35.070
699.50	35.088
699.68	35.238
699.87	35.405
700.06	35.455
700.24	35.260
700.43	34.779
700.61	36.042
700.80	35.126
700.98	35.238
701.17	35.602
701.35	34.816
701.54	35.080
701.72	35.809
701.91	35.364
702.09	35.358
702.28	35.792
702.46	35.120
702.65	35.078
702.83	35.229
703.02	35.378
703.20	35.638
703.39	35.435
703.57	35.055
703.76	34.308
703.94	35.373
704.13	35.255
704.31	34.312
704.50	34.527
704.68	36.110
704.87	35.024
705.05	35.060
705.24	34.577
705.42	35.177
705.61	35.652
705.79	35.106
705.98	35.135
706.16	35.208
706.35	34.677
706.53	34.480
706.72	36.001
706.90	35.185
707.09	35.276
707.27	34.321
707.46	35.079
707.64	34.068
707.83	34.751
708.01	35.117
708.20	34.718
708.38	34.730
708.57	35.262
708.75	35.447
708.94	35.239
709.12	34.440
709.31	35.287
709.49	34.778
709.68	35.093
709.86	35.251
710.04	34.891
710.23	34.916
710.41	34.690
710.60	36.409
710.78	35.270
710.97	35.081
711.15	35.368
711.34	35.052
711.52	35.213
711.71	35.936
711.89	34.988
712.07	35.382
712.26	35.344
712.44	35.928
712.63	35.065
712.81	34.743
713.00	34.320
713.18	35.540
713.37	35.627
713.55	35.050
713.73	34.724
713.92	35.040
714.10	34.534
714.29	34.995
714.47	35.180
714.66	35.060
714.84	34.543
715.02	35.280
715.21	35.226
715.39	34.787
715.58	35.203
715.76	34.623
715.95	34.419
716.13	34.241
716.31	35.142
716.50	35.393
716.68	35.197
716.87	35.679
717.05	34.566
717.23	34.797
717.42	34.667
717.60	34.888
717.79	35.146
717.97	35.272
718.15	34.206
718.34	34.846
718.52	34.822
718.71	35.386
718.89	35.005
719.07	34.961
719.26	35.181
719.44	36.067
719.63	34.941
719.81	35.264
719.99	34.793
720.18	33.943
720.36	34.527
720.55	34.449
720.73	34.768
720.91	34.330
721.10	34.798
721.28	34.276
721.47	35.915
721.65	34.829
721.83	34.364
722.02	34.016
722.20	34.892
722.38	34.356
722.57	34.678
722.75	34.154
722.94	34.258
723.12	35.767
723.30	35.893
723.49	34.740
723.67	34.249
723.85	35.484
724.04	34.942
724.22	34.220
724.40	34.652
724.59	34.618
724.77	34.669
724.96	34.202
725.14	33.976
725.32	35.033
725.51	34.359
725.69	34.325
725.87	34.893
726.06	34.812
726.24	34.009
726.42	35.389
726.61	35.214
726.79	36.081
726.97	35.186
727.16	35.099
727.34	34.959
727.52	34.643
727.71	34.168
727.89	35.229
728.07	34.935
728.26	35.175
728.44	34.435
728.62	33.984
728.81	34.709
728.99	34.949
729.17	35.685
729.36	35.427
729.54	35.952
729.72	34.142
729.91	34.590
730.09	35.130
730.27	34.612
730.46	35.010
730.64	33.686
730.82	35.058
731.00	34.560
731.19	34.445
731.37	34.562
731.55	34.928
731.74	34.074
731.92	33.966
732.10	33.966
732.29	33.759
732.47	34.779
732.65	33.631
732.83	33.664
733.02	33.938
733.20	36.185
733.38	34.121
733.57	35.332
733.75	34.964
733.93	35.435
734.12	34.415
734.30	34.327
734.48	34.118
734.66	35.545
734.85	33.825
735.03	34.438
735.21	35.871
735.40	35.282
735.58	34.447
735.76	35.111
735.94	33.668
736.13	34.931
736.31	34.406
736.49	34.213
736.67	33.535
736.86	34.879
737.04	34.575
737.22	35.328
737.40	35.082
737.59	33.774
737.77	34.351
737.95	34.955
738.14	35.082
738.32	34.812
738.50	34.016
738.68	36.009
738.87	34.499
739.05	35.006
739.23	34.951
739.41	34.159
739.60	33.889
739.78	33.830
739.96	35.663
740.14	35.329
740.33	33.848
740.51	34.054
740.69	34.311
740.87	34.750
741.05	35.769
741.24	34.382
741.42	35.063
741.60	34.422
741.78	33.847
741.97	33.864
742.15	34.107
742.33	34.256
742.51	35.619
742.70	33.461
742.88	34.780
743.06	34.969
743.24	34.498
743.42	34.871
743.61	35.624
743.79	33.639
743.97	34.273
744.15	34.507
744.34	34.842
744.52	34.922
744.70	34.605
744.88	34.585
745.06	34.898
745.25	35.370
745.43	34.943
745.61	35.174
745.79	34.610
745.97	32.982
746.16	34.702
746.34	33.868
746.52	35.392
746.70	36.140
746.88	33.593
747.07	34.257
747.25	34.540
747.43	34.112
747.61	34.425
747.79	34.546
747.97	35.665
748.16	34.227
748.34	35.963
748.52	34.678
748.70	33.200
748.88	34.855
749.07	34.652
749.25	34.366
749.43	34.404
749.61	36.284
749.79	34.075
749.97	34.944
750.16	34.078
750.34	35.120
750.52	35.286
750.70	33.829
750.88	33.850
751.06	33.429
751.25	34.898
751.43	33.542
751.61	34.029
751.79	34.751
751.97	35.080
752.15	34.308
752.34	34.130
752.52	34.423
752.70	36.703
752.88	35.406
753.06	35.092
753.24	34.911
753.42	34.531
753.61	33.769
753.79	34.707
753.97	35.222
754.15	33.633
754.33	34.770
754.51	35.401
754.69	34.909
754.88	34.745
755.06	35.312
755.24	34.858
755.42	34.891
755.60	35.001
755.78	33.781
755.96	33.924
756.14	35.169
756.33	34.631
756.51	34.960
756.69	34.771
756.87	33.339
757.05	34.253
757.23	34.898
757.41	34.188
757.59	34.866
757.78	33.399
757.96	34.201
758.14	34.818
758.32	34.276
758.50	33.778
758.68	33.436
758.86	34.339
759.04	34.301
759.22	33.972
759.40	34.004
759.59	34.640
759.77	34.373
759.95	34.638
760.13	33.844
760.31	34.463
760.49	34.591
760.67	35.885
760.85	35.920
761.03	34.960
761.21	35.907
761.39	35.572
761.58	35.240
761.76	35.517
761.94	35.868
762.12	34.939
762.30	34.180
762.48	34.652
762.66	34.926
762.84	33.787
763.02	34.630
763.20	34.078
763.38	33.861
763.56	35.434
763.74	34.983
763.93	34.697
764.11	34.515
764.29	33.890
764.47	33.871
764.65	34.202
764.83	34.618
765.01	34.483
765.19	33.991
765.37	34.660
765.55	33.428
765.73	34.858
765.91	35.213
766.09	34.084
766.27	34.516
766.45	35.736
766.63	34.173
766.81	35.493
766.99	35.439
767.18	35.741
767.36	33.731
767.54	34.742
767.72	34.664
767.90	32.746
768.08	33.383
768.26	33.803
768.44	34.052
768.62	33.505
768.80	33.541
768.98	36.986
769.16	35.278
769.34	34.629
769.52	34.198
769.70	33.674
769.88	34.990
770.06	34.181
770.24	34.033
770.42	34.271
770.60	33.297
770.78	32.684
770.96	33.409
771.14	34.622
771.32	35.250
771.50	34.228
771.68	36.316
771.86	32.333
772.04	33.844
772.22	33.641
772.40	34.891
772.58	36.813
772.76	33.294
772.94	35.341
773.12	34.470
773.30	34.585
773.48	33.227
773.66	34.481
773.84	33.913
774.02	35.997
774.20	35.577
774.38	35.656
774.56	35.846
774.74	34.835
774.92	32.872
775.10	35.807
775.28	35.737
775.46	34.298
775.64	35.481
775.82	33.861
776.00	35.811
776.18	35.771
776.36	34.426
776.54	33.697
776.72	32.891
776.90	32.258
777.08	34.452
777.26	34.243
777.44	33.378
777.62	34.330
777.80	33.763
777.98	35.655
778.16	34.309
778.33	34.152
778.51	32.523
778.69	33.204
778.87	34.344
779.05	34.027
779.23	35.011
779.41	32.552
779.59	34.085
779.77	34.028
779.95	34.285
780.13	33.885
780.31	32.784
780.49	36.291
780.67	34.445
780.85	32.741
781.03	35.289
781.21	33.999
781.39	34.398
781.56	33.400
781.74	35.516
781.92	34.192
782.10	35.288
782.28	33.945
782.46	33.709
782.64	34.015
782.82	34.297
783.00	33.120
783.18	33.519
783.36	33.180
783.54	36.609
783.72	34.257
783.89	36.022
784.07	35.839
784.25	35.203
784.43	33.688
784.61	35.448
784.79	34.203
784.97	35.231
785.15	35.509
785.33	34.989
785.51	34.876
785.69	34.194
785.86	32.788
786.04	36.123
786.22	33.386
786.40	35.437
786.58	33.118
786.76	34.979
786.94	33.313
787.12	34.071
787.30	35.613
787.48	34.165
787.65	35.892
787.83	33.968
788.01	33.805
788.19	37.128
788.37	35.004
788.55	34.818
788.73	33.261
788.91	34.612
789.08	34.909
789.26	35.687
789.44	34.297
789.62	35.092
789.80	32.880
789.98	33.827
790.16	35.516
790.34	35.474
790.51	35.338
790.69	34.113
790.87	36.725
791.05	36.470
791.23	35.101
791.41	33.012
791.59	36.321
791.76	30.975
791.94	35.566
792.12	35.608
792.30	37.528
792.48	35.551
792.66	33.360
792.84	32.691
793.01	34.439
793.19	34.230
793.37	34.389
793.55	35.997
793.73	35.788
793.91	35.667
794.08	33.663
794.26	34.081
794.44	34.075
794.62	35.362
794.80	33.848
794.98	33.234
795.15	35.631
795.33	33.721
795.51	34.112
795.69	34.786
795.87	34.462
796.05	34.500
796.22	35.306
796.40	34.884
796.58	32.585
796.76	34.415
796.94	36.124
797.11	36.133
797.29	36.395
797.47	36.640
797.65	33.387
797.83	33.142
798.00	34.114
798.18	34.634
798.36	34.841
798.54	34.261
798.72	34.989
798.89	34.994
799.07	32.009
799.25	36.927
799.43	33.781
799.61	35.152
799.78	33.733
799.96	35.747
800.14	33.939
800.32	36.017
800.50	33.736
800.67	35.813
800.85	35.503
801.03	34.648
801.21	33.498
801.39	35.125
801.56	34.164
801.74	33.272
801.92	37.202
802.10	35.906
802.27	34.773
802.45	36.248
802.63	34.034
802.81	32.804
802.99	32.871
803.16	31.941
803.34	33.298
803.52	34.714
803.70	30.981
803.87	32.203
804.05	32.617
804.23	33.564
804.41	35.155
804.58	33.237
804.76	36.227
804.94	35.528
805.12	32.074
805.29	34.493
805.47	33.587
805.65	32.803
805.83	35.237
806.00	35.417
806.18	32.496
806.36	33.402
806.54	34.569
806.71	36.488
806.89	32.514
807.07	33.913
807.25	35.552
807.42	33.981
807.60	34.794
807.78	36.173
807.95	34.443
808.13	33.953
808.31	33.558
808.49	32.836
808.66	34.662
808.84	33.475
809.02	34.696
809.20	35.450
809.37	32.453
809.55	37.227
809.73	34.670
809.90	34.334
810.08	33.500
810.26	34.779
810.44	36.298
810.61	33.860
810.79	33.313
810.97	33.273
811.14	36.247
811.32	34.893
811.50	35.549
811.67	36.756
811.85	35.306
812.03	36.332
812.21	32.177
812.38	34.385
812.56	33.421
812.74	33.562
812.91	36.354
813.09	35.377
813.27	33.536
813.44	35.598
813.62	31.848
813.80	36.076
813.97	33.863
814.15	35.122
814.33	33.348
814.50	33.655
814.68	30.060
814.86	36.405
815.04	33.049
815.21	33.667
815.39	35.043
815.57	36.394
815.74	35.281
815.92	36.300
816.10	35.224
816.27	33.641
816.45	33.622
816.63	38.197
816.80	33.696
816.98	35.845
817.15	33.004
817.33	33.955
817.51	34.267
817.68	37.142
817.86	36.624
818.04	33.523
818.21	34.025
818.39	35.353
818.57	34.658
818.74	35.096
818.92	32.040
819.10	34.804
819.27	35.876
819.45	34.902
819.63	35.874
819.80	34.450
819.98	36.461
820.15	36.305
820.33	33.292
820.51	34.673
820.68	36.426
820.86	33.607
821.04	32.537
821.21	33.447
821.39	33.843
821.56	34.206
821.74	33.795
821.92	35.125
822.09	34.804
822.27	34.230
822.45	34.803
822.62	34.298
822.80	34.189
822.97	34.823
823.15	33.750
823.33	34.331
823.50	34.261
823.68	35.352
823.85	34.300
824.03	34.457
824.21	34.924
824.38	35.562
824.56	35.444
824.73	35.534
824.91	35.923
825.09	36.934
825.26	35.661
825.44	36.736
825.61	36.758
825.79	35.320
825.97	35.484
826.14	35.979
826.32	36.417
826.49	37.226
826.67	36.563
826.85	36.110
827.02	35.047
827.20	35.521
827.37	34.991
827.55	35.996
827.72	34.918
827.90	34.530
828.08	35.624
828.25	34.575
828.43	35.726
828.60	35.031
828.78	34.069
828.95	34.787
829.13	35.195
829.31	33.968
829.48	34.962
829.66	34.535
829.83	36.283
830.01	36.338
830.18	36.936
830.36	36.077
830.53	35.545
830.71	37.761
830.89	37.367
831.06	37.473
831.24	36.453
831.41	35.337
831.59	37.916
831.76	37.733
831.94	35.956
832.11	39.032
832.29	37.126
832.46	38.527
832.64	34.450
832.81	35.302
832.99	33.939
833.17	35.409
833.34	34.048
833.52	33.803
833.69	34.653
833.87	34.131
834.04	34.552
834.22	33.892
834.39	34.529
834.57	35.030
834.74	34.793
834.92	34.436
835.09	35.178
835.27	34.886
835.44	34.875
835.62	35.133
835.79	34.429
835.97	35.459
836.14	35.717
836.32	33.859
836.49	35.584
836.67	34.409
836.84	34.414
837.02	35.812
837.19	33.306
837.37	33.692
837.54	34.915
837.72	37.104
837.89	36.862
838.07	36.318
838.24	36.075
838.42	37.870
838.59	36.985
838.77	38.083
838.94	36.258
839.12	35.889
839.29	40.154
839.47	34.837
839.64	38.503
839.82	34.015
839.99	39.259
840.17	36.069
840.34	35.534
840.52	36.961
840.69	32.913
840.86	33.537
841.04	30.936
841.21	32.952
841.39	35.876
841.56	29.761
841.74	34.120
841.91	33.134
842.09	32.307
842.26	33.613
842.44	36.364
842.61	34.924
842.79	36.901
842.96	34.213
843.13	40.193
843.31	34.173
843.48	35.287
843.66	38.491
843.83	34.178
844.01	39.150
844.18	35.302
844.36	38.685
844.53	35.061
844.70	32.260
844.88	28.806
845.05	35.988
845.23	36.917
845.40	40.018
845.58	35.224
845.75	34.669
845.92	35.902
846.10	37.778
846.27	38.364
846.45	32.576
846.62	39.423
846.80	33.429
846.97	36.391
847.14	32.049
847.32	41.142
847.49	30.393
847.67	35.251
847.84	38.053
848.02	36.335
848.19	32.716
848.36	34.048
848.54	32.873
848.71	33.228
848.89	34.553
849.06	39.146
849.23	40.432
849.41	34.983
849.58	30.287
849.76	37.797
849.93	45.868
850.10	33.598
850.28	32.475
850.45	34.360
850.63	38.567
850.80	36.074
850.97	41.205
851.15	42.873
851.32	26.766
851.49	26.366
851.67	34.564
851.84	34.635
852.02	32.544
852.19	31.985
852.36	36.298
852.54	42.001
852.71	38.223
852.88	36.878
853.06	28.132
853.23	29.012
853.41	37.294
853.58	37.159
853.75	37.440
853.93	29.019
854.10	38.798
854.27	39.605
854.45	35.910
854.62	37.788
854.79	36.000
854.97	32.679
855.14	38.751
855.32	40.304
855.49	27.680
855.66	35.537
855.84	29.786
856.01	33.653
856.18	42.091
856.36	33.739
856.53	37.143
856.70	32.922
856.88	43.969
857.05	28.302
857.22	33.031
857.40	32.943
857.57	42.072
857.74	39.913
857.92	42.065
858.09	31.660
858.26	30.199
858.44	35.901
858.61	35.064
858.78	31.347
858.96	35.768
859.13	28.451
859.30	32.812
859.48	33.511
859.65	32.171
859.82	26.849
860.00	35.186
860.17	34.910
860.34	31.736
860.51	29.693
860.69	29.845
860.86	33.600
861.03	39.675
861.21	38.245
861.38	30.460
861.55	34.205
861.73	40.912
861.90	41.139
862.07	48.055
862.24	45.924
862.42	27.279
862.59	46.340
862.76	37.826
862.94	37.136
863.11	29.986
863.28	39.667
863.46	39.797
863.63	29.808
863.80	44.087
863.97	38.788
864.15	41.455
864.32	32.768
864.49	39.307
864.66	34.186
864.84	34.652
865.01	41.812
865.18	37.302
865.36	37.786
865.53	31.469
865.70	37.066
865.87	30.769
866.05	35.278
866.22	41.438
866.39	45.188
866.56	42.793
866.74	48.142
866.91	40.541
867.08	35.798
867.25	36.933
867.43	34.873
867.60	38.222
867.77	39.201
867.94	37.302
868.12	37.929
868.29	26.348
868.46	36.030
868.63	25.034
868.81	39.300
868.98	38.004
869.15	39.658
869.32	36.781
869.50	36.593
869.67	34.408
869.84	23.631
870.01	35.880
870.19	44.863
870.36	36.534
870.53	32.700
870.70	35.680
870.88	35.685
871.05	37.509
871.22	35.324
871.39	43.313
871.56	31.746
871.74	39.431
871.91	35.367
872.08	39.826
872.25	34.169
872.42	38.473
872.60	42.087
872.77	36.905
872.94	42.897
873.11	43.252
873.29	38.635
873.46	27.757
873.63	36.671
873.80	34.290
873.97	26.911
874.15	33.312
874.32	34.801
874.49	41.081
874.66	37.039
874.83	17.095
875.00	36.860
875.18	35.576
875.35	32.940
875.52	40.663
875.69	45.064
875.86	38.811
876.04	34.510
876.21	45.636
876.38	36.623
876.55	40.653
876.72	39.867
876.89	35.256
877.07	34.157
877.24	36.924
877.41	36.798
877.58	43.127
877.75	42.837
877.93	34.270
878.10	35.142
878.27	29.604
878.44	33.038
878.61	32.313
878.78	42.129
878.95	36.687
879.13	34.031
879.30	32.438
879.47	32.840
879.64	31.966
879.81	34.994
879.98	34.048
880.16	29.861
880.33	37.542
880.50	35.347
880.67	35.080
880.84	36.468
881.01	35.563
881.18	37.525
881.36	35.562
881.53	30.264
881.70	34.069
881.87	37.373
882.04	31.252
882.21	33.724
882.38	34.318
882.55	34.032
882.73	34.700
882.90	34.515
883.07	33.752
883.24	34.883
883.41	36.733
883.58	34.742
883.75	34.257
883.92	35.681
884.10	34.268
884.27	35.754
884.44	36.659
884.61	36.823
884.78	36.371
884.95	34.897
885.12	36.335
885.29	37.301
885.46	38.625
885.64	38.753
885.81	37.456
885.98	37.956
886.15	38.187
886.32	38.123
886.49	38.016
886.66	39.192
886.83	37.787
887.00	40.456
887.17	38.556
887.35	37.760
887.52	35.039
887.69	36.960
887.86	41.497
888.03	42.595
888.20	38.018
888.37	39.635
>>>>>End Processed Spectral Data<<<<<
